time  position velocity 
 0.017 -0.00899029516454 -0.0742646502836
0.037 -0.0102855436362 -0.0731179573307
0.057 -0.0115503945692 -0.07070963278
0.077 -0.0132260489053 -0.0671433904971
0.097 -0.014329671698 -0.0625176140404
0.117 -0.0157472353902 -0.0569255389917
0.137 -0.0167771902512 -0.0504554332513
0.157 -0.0176091691616 -0.0431907750309
0.177 -0.0187477428827 -0.0352104283033
0.197 -0.0198760611369 -0.0265888154936
0.217 -0.0203726144321 -0.0173960872193
0.237 -0.0202379989127 -0.00769828890732
0.257 -0.0207678747381 0.00244247586007
0.277 -0.0209782941327 0.0129860647005
0.297 -0.0203534471176 0.0238399661146
0.317 -0.0200132886205 0.0349726663367
0.336 -0.019026550247 0.0463362628797
0.357 -0.0179715381237 0.0578860314429
0.377 -0.0172374809256 0.0695802843517
0.397 -0.0155488362597 0.0813802328401
0.417 -0.0139522742624 0.093249853203
0.437 -0.0122729995347 0.10516409275
0.457 -0.0101053562363 0.117082125186
0.477 -0.00767174668032 0.128969116898
0.498 -0.00483057002126 0.140806857996
0.517 -0.00196626510686 0.152571276139
0.537 0.00111553833217 0.164240342393
0.557 0.00411692496008 0.175793964356
0.577 0.00733634592878 0.187185458842
0.597 0.0111952455661 0.198429556689
0.617 0.0151515913198 0.209538523688
0.637 0.018941834272 0.220468810325
0.657 0.0234656935665 0.231208540594
0.677 0.0283124445376 0.24174721045
0.697 0.0335063458081 0.252075787624
0.717 0.0386073244649 0.262185891861
0.737 0.0434861852831 0.272070854014
0.757 0.0488337383938 0.281724872136
0.777 0.0542392478726 0.291143139423
0.797 0.0604482772081 0.300321778221
0.816 0.0668878840778 0.30925777696
0.837 0.0730375137432 0.317948929948
0.857 0.0789694179415 0.32639377995
0.877 0.0854961434009 0.334591563464
0.897 0.092299130116 0.342542158606
0.917 0.0989397489097 0.350243145072
0.937 0.10606879987 0.357701550524
0.957 0.113355997182 0.364915756448
0.977 0.120324907843 0.371887736297
0.997 0.127810111072 0.378619881057
1.018 0.13565688994 0.385114961165
1.037 0.143743361462 0.391376090495
1.057 0.15141686639 0.397406692334
1.077 0.159329351455 0.403210467263
1.097 0.166986623134 0.408791362895
1.116 0.175292025415 0.414153545373
1.136 0.183363053025 0.419301372566
1.157 0.191862519414 0.424195781785
1.177 0.200201439906 0.428870627461
1.197 0.209088591818 0.433411322524
1.217 0.217547845207 0.437756110613
1.237 0.226100244068 0.441909975214
1.257 0.234809153336 0.445877962532
1.277 0.244366414551 0.449665164725
1.297 0.252934102008 0.453279915206
1.317 0.262130487936 0.456695591715
1.337 0.27140437247 0.459942347542
1.357 0.28058822032 0.463061857162
1.377 0.290069377455 0.466026015083
1.397 0.299151401887 0.468839907254
1.417 0.308692238592 0.471508578561
1.437 0.318296306755 0.474034258769
1.457 0.327692495254 0.476402316336
1.477 0.336988723778 0.478636877415
1.497 0.346115957277 0.480778564635
1.517 0.356246894108 0.482799128852
1.537 0.365732921366 0.484703220083
1.556 0.375714881319 0.48649540151
1.577 0.385175297847 0.488180145478
1.597 0.395114178288 0.489761830008
1.617 0.404540306836 0.491219104979
1.637 0.414625750013 0.492579327083
1.657 0.42469325303 0.493881477577
1.677 0.434340846098 0.495096861869
1.697 0.444352603788 0.496227503573
1.717 0.454549746284 0.497281031796
1.736 0.464301199391 0.498259101409
1.757 0.474370486071 0.499165270955
1.777 0.484183852203 0.500002991903
1.797 0.494069467588 0.500775608844
1.817 0.503789248049 0.501486359906
1.837 0.51425132571 0.502138377399
1.857 0.524587265131 0.502734688654
1.877 0.534391319886 0.503278217048
1.897 0.544311190714 0.503771783189
1.917 0.554604426574 0.504218106255
1.936 0.564647218384 0.504619805469
1.957 0.574829069025 0.504979401692
1.977 0.584394634005 0.505299319126
1.997 0.594726344965 0.505581887108
2.017 0.605210523829 0.505829341999
2.037 0.61513080991 0.50604382913
2.057 0.624970113176 0.506201061596
2.077 0.635612381856 0.506328297149
2.096 0.645615211229 0.506460238356
2.117 0.655325840854 0.506566701138
2.136 0.665591900726 0.506649414438
2.157 0.675928383901 0.506710028822
2.177 0.686056646046 0.506750118677
2.197 0.696052187684 0.506771184423
2.216 0.706353479861 0.506774654722
2.236 0.716475588034 0.506761888687
2.257 0.726378728005 0.506711044291
2.277 0.736624445583 0.506588893924
2.297 0.746955269219 0.50647348851
2.317 0.756862288178 0.506395003378
2.337 0.767048106733 0.506304829735
2.357 0.776903352813 0.506236102592
2.377 0.787416989415 0.50615801865
2.397 0.79737293699 0.506044854068
2.416 0.807511865848 0.505923617824
2.437 0.817915244729 0.50580043921
2.457 0.828344759218 0.505670582727
2.476 0.837719946291 0.505566688005
2.496 0.848316143732 0.505457746951
2.517 0.858212367477 0.505344408455
2.536 0.868151064821 0.505227281349
2.557 0.878244648629 0.505106936084
2.577 0.888054523783 0.504983906367
2.597 0.898508761445 0.504858690757
2.616 0.908642165667 0.504731754226
2.637 0.918674773554 0.504603529669
2.657 0.928979563049 0.504474419376
2.676 0.93910085118 0.504344796468
2.697 0.949100179486 0.504215006274
2.717 0.959035474143 0.504085367689
2.737 0.969400532467 0.503956174465
2.756 0.979046427805 0.503827752783
2.777 0.989082166294 0.503700232754
2.797 0.999063419684 0.503573901155
2.816 1.00926496927 0.503448963378
2.836 1.01950732378 0.503325605568
2.856 1.02936148545 0.503203995684
2.876 1.03967836886 0.503084284512
2.896 1.0498484612 0.502966606646
2.916 1.05958993327 0.50285108143
2.937 1.06969244226 0.502737813861
2.956 1.07988788121 0.502626895454
2.976 1.08972502773 0.502518405077
2.996 1.09962577853 0.502412409749
3.017 1.11002737868 0.502308965397
3.037 1.11985412727 0.502208117593
3.057 1.13010603804 0.502109902247
3.077 1.14016584717 0.502014346274
3.096 1.15043231874 0.50192146823
3.117 1.16038650253 0.501831278918
3.137 1.17034602009 0.501743781965
3.157 1.1804653026 0.501658974369
3.176 1.19031479161 0.501576847024
3.197 1.20051407327 0.50147055682
3.216 1.21055331937 0.50136679979
3.237 1.22002911455 0.501296973181
3.257 1.23012303164 0.501202688366
3.277 1.24038858843 0.501110633262
3.297 1.25046832085 0.501025378209
3.317 1.26054742504 0.500942065703
3.337 1.27063017426 0.500892098576
3.357 1.28073569692 0.500843911736
3.377 1.290548305 0.500797480409
3.397 1.30060700442 0.500752777611
3.417 1.31054741442 0.500709774378
3.437 1.32064029379 0.500641615404
3.457 1.33078455984 0.500574972463
3.477 1.34077072683 0.50054124604
3.497 1.3509059004 0.500508864782
3.517 1.36092636674 0.500477800477
3.537 1.37061295577 0.500448024
3.557 1.38098775075 0.500419505457
3.577 1.3907392949 0.50039221431
3.597 1.40092242295 0.500366119501
3.617 1.41039777584 0.500341189569
3.636 1.42065012805 0.500317392748
3.657 1.43099776202 0.500294697073
3.677 1.44054405668 0.500273070467
3.697 1.45062379805 0.500252480825
3.717 1.46096825351 0.500232896093
3.737 1.47080014212 0.500214284342
3.756 1.48086162119 0.500196613827
3.777 1.49085344741 0.500179853055
3.797 1.50102744095 0.500163970834
3.818 1.51103648267 0.500148936325
3.836 1.52067850165 0.500134719089
3.857 1.53024661097 0.500121289126
3.877 1.54072578695 0.500108616911
3.897 1.55070340395 0.500096673428
3.917 1.56068033655 0.500085430197
3.936 1.57049760778 0.500074859302
3.957 1.58051252027 0.500064933411
3.977 1.59048031492 0.500055625798
3.997 1.60046618943 0.500046910353
4.016 1.61063694833 0.500038761601
4.037 1.62063789089 0.500031154712
4.057 1.63021626422 0.500024065507
4.077 1.64060120016 0.500017470466
4.097 1.65042696791 0.500011346732
4.117 1.66047647644 0.500005672114
4.137 1.67069527277 0.500000425087
4.157 1.68044676522 0.49999558479
4.177 1.69061586488 0.499991131025
4.197 1.70034519721 0.499987044252
4.217 1.71060450745 0.499983305585
4.237 1.72011403989 0.499979896785
4.257 1.73035481983 0.499949985618
4.277 1.74046390157 0.499920229276
4.297 1.75093284024 0.499922075385
4.317 1.76101222525 0.499923961694
4.337 1.77057805215 0.499925880631
4.357 1.78032824496 0.499927825139
4.377 1.79061901171 0.499929788649
4.397 1.80056287652 0.499931765055
4.417 1.81043309717 0.499933748698
4.437 1.82033306634 0.49993573434
4.456 1.83047485305 0.499937717147
4.476 1.84022797383 0.499939692664
4.496 1.85021722147 0.499941656804
4.517 1.86049068834 0.49994360582
4.537 1.8701926302 0.499945536295
4.557 1.8805678783 0.49994744512
4.577 1.89080300058 0.499949329477
4.597 1.9006248096 0.499951186828
4.617 1.91062905309 0.499953014893
4.637 1.92028666176 0.49995481164
4.657 1.93019647454 0.499956575268
4.677 1.94008756232 0.499958304194
4.696 1.95016311191 0.499959997039
4.717 1.96065383966 0.499961652619
4.737 1.9704311519 0.499963269925
4.757 1.98078324762 0.499964848122
4.777 1.99060105049 0.499966386528
4.797 2.00058145364 0.49996788461
4.817 2.01093140079 0.49996934197
4.837 2.02049636112 0.499970758339
4.857 2.03052246262 0.499972133992
4.877 2.04096585459 0.499946657884
4.897 2.05056433145 0.499920991342
4.916 2.06072205793 0.499926611589
4.937 2.07045770618 0.499931968065
4.957 2.08066618421 0.499937068644
4.977 2.09037761872 0.49994192119
4.996 2.10060099686 0.499946533538
5.016 2.11096505212 0.499950913486
5.037 2.1206238529 0.499955068768
5.057 2.13073822134 0.499959007049
5.078 2.14059160824 0.499962735911
5.097 2.15063146821 0.499966262839
5.116 2.16065545636 0.499969595211
5.137 2.17036140862 0.499945932062
5.157 2.18058849703 0.499921935798
5.177 2.19095819363 0.499929095937
5.197 2.20064939643 0.49993586679
5.217 2.21020484495 0.49994226265
5.237 2.22030701315 0.499948297583
5.257 2.23068289163 0.499953985411
5.277 2.24036725555 0.499959339702
5.297 2.25019749975 0.499964373755
5.317 2.26030591912 0.49996910059
5.337 2.27032503946 0.499973532941
5.357 2.2803223182 0.499977683245
5.377 2.29025548193 0.499981563637
5.397 2.30022209861 0.499985185945
5.417 2.31027054926 0.499988561688
5.436 2.32046973699 0.49999170207
5.457 2.33051612169 0.499994617978
5.477 2.34066935209 0.499997319984
5.497 2.35075032107 0.49999981834
5.517 2.36072088706 0.500002122984
5.537 2.37062076915 0.500004243538
5.557 2.38057471053 0.500006189308
5.577 2.39058965678 0.50000796929
5.597 2.40080682783 0.500009592173
5.617 2.41116736818 0.500011066339
5.637 2.42095681062 0.50001239987
5.657 2.43100421071 0.500013600552
5.677 2.44075649327 0.500014675878
5.697 2.45073898064 0.500015633055
5.717 2.4608082014 0.500016479008
5.737 2.47074556182 0.500017220387
5.757 2.48065891801 0.50001786357
5.777 2.49034335655 0.500018414671
5.796 2.50060955677 0.500018879548
5.817 2.51070230448 0.500019263804
5.837 2.52052235067 0.5000195728
5.857 2.53063054097 0.500019811655
5.877 2.54079907333 0.500019985257
5.896 2.550934768 0.500020098266
5.917 2.5606902526 0.500020155126
5.937 2.57055737451 0.500020160066
5.957 2.58074846032 0.500020117108
5.976 2.59063376815 0.500020030076
5.997 2.60055304757 0.500019902599
6.017 2.61071275289 0.500019738121
6.037 2.62024081871 0.500019539905
6.057 2.63037591924 0.50001931104
6.077 2.64040948 0.500019054447
6.097 2.65029098044 0.500018772884
6.117 2.66088594141 0.500018468957
6.137 2.6708213318 0.500018145119
6.157 2.68055901961 0.500017803681
6.177 2.69047857896 0.500017446815
6.197 2.70084220768 0.500017076561
6.217 2.71122475368 0.500016694832
6.237 2.72086860234 0.500016303419
6.257 2.7305097262 0.500015903997
6.277 2.74079145554 0.500015498131
6.297 2.75033813327 0.500015087277
6.316 2.76052601164 0.500014672791
6.337 2.77095216978 0.500014255932
6.357 2.78089154476 0.500013837868
6.377 2.79024305901 0.500013419677
6.397 2.80068719283 0.500013002354
6.417 2.81123911138 0.499985776581
6.437 2.82062508682 0.499958404406
6.457 2.83055108615 0.499962363244
6.477 2.84083905813 0.499966103154
6.497 2.85084472998 0.499942824373
6.517 2.86071272471 0.499919189429
6.537 2.8702787511 0.49989988386
6.556 2.88051865905 0.499880010248
6.577 2.89038515345 0.49989107376
6.597 2.90043186051 0.499901534278
6.617 2.91066099416 0.499911414004
6.637 2.92069867957 0.499920734786
6.657 2.93083678933 0.499929518091
6.677 2.94112105971 0.499937784982
6.697 2.95120584248 0.499945566645
6.717 2.96089113619 0.499952861369
6.737 2.97066962117 0.499959700337
6.757 2.9806344034 0.499966102847
6.777 2.99043927573 0.499972087726
6.797 3.0004912175 0.499977673321
6.817 3.01068141782 0.499982877495
6.837 3.02077131938 0.499987717622
6.857 3.03083435533 0.499992210583
6.877 3.0406375469 0.499996372767
6.897 3.05080693544 0.500000220069
6.917 3.06116627578 0.499976961445
6.937 3.07105170823 0.499953261822
6.957 3.08079376848 0.499960623254
6.977 3.09068025137 0.499967505453
6.997 3.10093803071 0.499973929439
7.017 3.11059154826 0.499979915679
7.037 3.12058080926 0.49998548408
7.057 3.13111330368 0.499990653988
7.077 3.1408807399 0.499995444184
7.097 3.15051536046 0.499999872884
7.117 3.16061432382 0.500003957742
7.137 3.17110048578 0.500007715849
7.157 3.18101873086 0.500011163739
7.177 3.19082833949 0.500014317393
7.197 3.20084237532 0.500017192241
7.217 3.21068466295 0.500019803173
7.237 3.22097684748 0.500022164545
7.257 3.23082746262 0.500024290184
7.277 3.24098656384 0.500026193397
7.297 3.25065356033 0.500027886983
7.317 3.26096243125 0.500029383241
7.337 3.27080965932 0.500030693978
7.357 3.28110864603 0.500031830521
7.377 3.29103046343 0.500032803728
7.397 3.30123371529 0.500033623996
7.416 3.31070524324 0.500034301278
7.436 3.3207242154 0.500008036842
7.457 3.33123295545 0.499981495136
7.477 3.3412005162 0.49995936117
7.497 3.35110455214 0.499906926454
7.517 3.36069544576 0.499888596515
7.537 3.37069006316 0.499901065327
7.557 3.38106321962 0.499912798395
7.577 3.39081448528 0.499923825237
7.597 3.40057784835 0.499934174745
7.617 3.41034736852 0.49994387516
7.637 3.42070714995 0.499952954059
7.657 3.43105685343 0.499961438341
7.676 3.44099552173 0.499969354217
7.697 3.45111233854 0.499949923602
7.717 3.46082077907 0.499929812905
7.737 3.47094350412 0.499940542137
7.757 3.48117459881 0.499950562585
7.777 3.49124445155 0.499959936066
7.797 3.50062892802 0.499968675583
7.817 3.51072658497 0.499976809803
7.836 3.52065044018 0.499984366591
7.857 3.53074919761 0.499991373007
7.877 3.54074775853 0.499997855306
7.897 3.55076087659 0.500003838939
7.917 3.5610948604 0.500009348552
7.937 3.57095568185 0.500014407996
7.957 3.58096763388 0.500019040327
7.977 3.59118250395 0.500023267819
7.996 3.60072720694 0.500027121434
8.017 3.61042150593 0.500030611257
8.037 3.62093305166 0.500033748701
8.057 3.63078008158 0.500036562803
8.077 3.64064839566 0.500039072057
8.097 3.65055433704 0.500041294238
8.117 3.66093559084 0.500043246416
8.137 3.67083933472 0.500044944972
8.157 3.6812293479 0.50004640561
8.177 3.69072099364 0.500047643376
8.197 3.70101343981 0.500048672672
8.217 3.71106482028 0.500049507271
8.236 3.72069490364 0.500050160336
8.256 3.73102618472 0.500050644435
8.277 3.74068206153 0.500050971555
8.297 3.75066144377 0.500051153124
8.317 3.76112814617 0.500051200026
8.337 3.77106763458 0.500051122613
8.357 3.7810979188 0.500050930729
8.377 3.79086858002 0.500050633721
8.397 3.80063711849 0.500050240458
8.417 3.81089926903 0.500049759347
8.437 3.82097554957 0.500049198347
8.457 3.83113831213 0.500048564989
8.477 3.84111844468 0.500047866389
8.497 3.8510021302 0.500047109262
8.517 3.86065442869 0.500046299941
8.536 3.87092422796 0.500045444389
8.556 3.8808085188 0.500044548216
8.576 3.8912633517 0.500043616689
8.596 3.90051300459 0.500042654752
8.617 3.91069307279 0.500041667035
8.637 3.92102845601 0.500040657868
8.657 3.93068075239 0.500039631298
8.677 3.94085852446 0.500038591096
8.697 3.95117994996 0.500037540772
8.717 3.96105319216 0.500036483589
8.737 3.97126330547 0.500035422572
8.757 3.9813156598 0.500034360518
8.777 3.99116892491 0.500033300012
8.797 4.0013070821 0.500032243433
8.816 4.01124138507 0.500031192965
8.837 4.02084478021 0.50003015061
8.857 4.03063049066 0.500029118194
8.877 4.04085728577 0.500028097377
8.897 4.05080215167 0.500027089665
8.917 4.06111106026 0.500026096414
8.937 4.07066355568 0.500025118841
8.957 4.08091187237 0.500024158032
8.977 4.09092996866 0.500023214948
8.997 4.1011545565 0.500022290435
9.017 4.11121676774 0.500021385229
9.036 4.12076026422 0.499993689579
9.057 4.13062578723 0.499965865673
9.077 4.14096982535 0.499969390163
9.096 4.15089097213 0.499972712917
9.117 4.16101166688 0.49997584178
9.137 4.17106613064 0.499978784444
9.157 4.18112423814 0.499981548443
9.176 4.19107708509 0.499984141147
9.197 4.20077030457 0.499986569755
9.217 4.21062056178 0.499988841296
9.236 4.22086382631 0.49999096262
9.256 4.23097384968 0.499966131828
9.277 4.24068443122 0.499941011705
9.297 4.25098370291 0.499947097476
9.317 4.2611950754 0.49995282759
9.337 4.27107980394 0.49995822361
9.356 4.28072374254 0.49996329878
9.377 4.29088190399 0.499968066071
9.396 4.3011265657 0.499972538172
9.417 4.31104050793 0.499976727481
9.437 4.32078901509 0.4999806461
9.457 4.33098461455 0.499984305828
9.477 4.34092889797 0.499987718156
9.497 4.35094586571 0.499990894269
9.517 4.36094520823 0.499993839916
9.537 4.37056532161 0.499996576303
9.557 4.38085599951 0.499999108121
9.577 4.39120453616 0.500001445302
9.597 4.40071730168 0.50000359746
9.617 4.4112377126 0.500005578111
9.636 4.42109038204 0.500007387495
9.656 4.43100348122 0.500009038866
9.676 4.44075424909 0.50001054061
9.697 4.45052738803 0.500011900816
9.717 4.46052225864 0.500013130649
9.737 4.47066943574 0.500014230596
9.757 4.48067943667 0.499988402881
9.777 4.49051323452 0.49996231097
9.796 4.50102478902 0.499967442758
9.816 4.51109681467 0.4999722525
9.836 4.5211348801 0.499976753886
9.856 4.53064199961 0.499980960269
9.876 4.54068169481 0.49998488466
9.897 4.55075410119 0.499988539721
9.916 4.56075697084 0.499991937767
9.936 4.57113326447 0.499995090762
9.957 4.58097021472 0.499971202958
9.976 4.59065610744 0.499946938326
